Frequency Merging-Normal Merging-Umklapp Splitting-Normal Splitting-Umklapp Total_DOS
0.0 0.4654219904231922 0.3700134565855227 0.0 0.0 0.8354354470087154
0.02002002002002002 0.6399273567352338 0.5107994857985338 0.0 0.0 1.150726842533767
0.04004004004004004 0.8646146593698227 0.6934378689194498 0.0 0.0 1.5580525282892732
0.06006006006006006 1.1480173354610368 0.9259106307518465 0.0 0.0 2.0739279662128847
0.08008008008008008 1.4980928020848845 1.216264949736384 0.0 0.0 2.71435775182127
0.10010010010010009 1.9214517059833809 1.5721455348670728 0.0 0.0 3.4935972408504568
0.12012012012012012 2.4224979592986386 2.000262276230397 0.0 0.0 4.422760235529035
0.14014014014014015 3.002556460054491 2.5058387444573107 0.0 0.0 5.508395204511796
0.16016016016016016 3.6590879650009183 3.0920990178273797 0.0 0.0 6.751186982828297
0.18018018018018017 4.385103420520946 3.759855250220282 0.0 0.0 8.14495867074122
0.20020020020020018 5.168888492636538 4.507253978883101 0.0 0.0 9.676142471519638
0.22022022022022023 5.994130092605655 5.329724545719187 0.0 0.0 11.323854638324843
0.24024024024024024 6.840500103640961 6.2201493687954725 0.0 0.0 13.060649472436438
0.2602602602602603 7.684700323442231 7.169246536740773 0.0 0.0 14.853946860182992
0.2802802802802803 8.501913158479425 8.16612544699047 0.0 0.0 16.6680386054699
0.3003003003003003 9.267543611989435 9.198951880406389 0.0 0.0 18.466495492395815
0.3203203203203203 9.95908934928367 10.25564531839932 0.0 0.0 20.214734667682983
0.34034034034034033 10.557945943519218 11.324531768122569 0.0 0.0 21.882477711641794
0.36036036036036034 11.050949864434504 12.394890075098537 0.0 0.0 23.445839939533027
0.38038038038038036 11.431484257740099 13.45735541226436 0.0 0.0 24.88883967000444
0.40040040040040037 11.700019242181334 14.50417415956186 0.0 0.0 26.204193401743222
0.42042042042042044 11.864022263074482 15.529332047378897 0.0 0.0 27.39335431045337
0.44044044044044045 11.93724512205726 16.52859502936175 0.0 0.0 28.465840151419
0.46046046046046046 11.938462014128712 17.49950517486588 0.0 0.0 29.43796718899464
0.4804804804804805 11.88978794826017 18.44136119850811 0.0 0.0 30.331149146768254
0.5005005005005005 11.814743035383938 19.355188759397176 0.0 0.0 31.16993179478107
0.5205205205205206 11.736242904473064 20.24367668653152 0.0 0.0 31.979919591004588
0.5405405405405406 11.67469031460273 21.111030926898188 0.0 0.0 32.78572124150094
0.5605605605605606 11.646322010627506 21.962686729934937 0.0 0.0 33.60900874056238
0.5805805805805806 11.661933484423882 22.80482684948343 0.0 0.0 34.46676033390739
0.6006006006006006 11.72606784721383 23.643680259044263 0.0 0.0 35.36974810625812
0.6206206206206206 11.836717526757505 24.484617964480552 0.0 0.0 36.3213354912381
0.6406406406406406 11.985551306785856 25.331111806319015 0.0 0.0 37.31666311310486
0.6606606606606606 12.158645170646293 26.18366833062001 0.0 0.0 38.342313501266226
0.6806806806806807 12.337663548426335 27.038882696174046 0.0 0.0 39.37654624460034
0.7007007007007007 12.501407993396036 27.888769344158998 0.0 0.0 40.39017733755489
0.7207207207207207 12.627623827001157 28.720512795734166 0.0 0.0 41.34813662273535
0.7407407407407407 12.694933634441101 29.516743881398504 0.0 0.0 42.2116775158397
0.7607607607607607 12.684752122786874 30.256388431958896 0.0 0.0 42.94114055474582
0.7807807807807807 12.583032346341335 30.916064558837256 0.0 0.0 43.499096905178604
0.8008008008008007 12.381700610868235 31.471930532778803 0.0 0.0 43.8536311436472
0.8208208208208209 12.07965718017791 31.90181790292848 0.0 0.0 43.98147508310656
0.8408408408408409 11.683251321318826 32.187433283021136 0.0 0.0 43.87068460434005
0.8608608608608609 11.206179791333607 32.31638502824972 0.0 0.0 43.52256481958303
0.8808808808808809 10.668803995868466 32.28379327167834 0.0 0.0 42.952597267546864
0.9009009009009009 10.096928600385917 32.09327567175187 0.0 0.0 42.19020427213768
0.9209209209209209 9.520129292332774 31.757165001949648 0.0 0.0 41.27729429428264
0.9409409409409409 8.969756187557827 31.295902381304 0.0 0.0 40.26565856886166
0.960960960960961 8.476769367938486 30.73665147553225 0.0 0.0 39.2134208434707
0.980980980980981 8.069582357727752 30.111281368706518 0.0 0.0 38.180863726434325
1.001001001001001 7.772096748707334 29.453954758340792 0.0 0.0 37.22605150704837
1.021021021021021 7.602105823972682 28.798620437526292 0.0 0.0 36.40072626149897
1.0410410410410411 7.570226326989763 28.176734807683378 0.0 0.0 35.74696113467326
1.0610610610610611 7.67948522060283 27.61552167837895 0.0 0.0 35.29500689898178
1.0810810810810811 7.925642733036922 27.13702415667785 0.0 0.0 35.06266688971478
1.1011011011011012 8.298275607105593 26.758114083850376 0.0 0.0 35.05638969095589
1.1211211211211212 8.782578201195225 26.491514771249822 0.0 0.0 35.27409297244512
1.1411411411411412 9.36176872485459 26.34777566224734 0.0 0.0 35.70954438710197
1.1611611611611612 10.019920014968083 26.338027091052528 0.0 0.0 36.35794710602048
1.1811811811811812 10.744976736321094 26.477251740615564 0.0 0.0 37.222228476936586
1.2012012012012012 11.531681862051126 26.78774564552523 0.0 0.0 38.319427507576385
1.2212212212212212 12.384121802433123 27.302410566485296 0.0 0.0 39.68653236891836
1.2412412412412412 13.317616086613056 28.067522147584935 0.0 0.0 41.385138234198045
1.2612612612612613 14.359724723869089 29.144651676475537 0.0 0.0 43.50437640034449
1.2812812812812813 15.550220419270055 30.61147776413688 0.0 0.0 46.16169818340694
1.3013013013013013 16.939965411626176 32.561300005275406 0.0 0.0 49.50126541690134
1.3213213213213213 18.58873213914789 35.101150731444626 0.0 0.0 53.6898828705928
1.3413413413413413 20.562099917713006 38.34848447477688 0.0 0.0 58.91058439248978
1.3613613613613613 22.927633780168193 42.42650034513416 0.0 0.0 65.35413412530244
1.3813813813813813 25.750597203456792 47.45821575336484 0.0 0.0 73.20881295682194
1.4014014014014013 29.089463495787953 53.55946054330089 0.0 0.0 82.64892403908854
1.4214214214214214 32.991473336690085 60.831003155317 0.0 0.0 93.82247649200761
1.4414414414414414 37.4884467975473 69.35006368758975 0.0 0.0 106.83851048513687
1.4614614614614614 42.593010261389296 79.16152360866373 0.0 0.0 121.75453387005304
1.4814814814814814 48.295357065739424 90.26921812614886 0.0 0.0 138.5645751918885
1.5015015015015014 54.56063878065883 102.62779893845762 0.0 0.0 157.1884377191168
1.5215215215215214 61.327089779074804 116.1357765084495 0.0 0.0 177.4628662875247
1.5415415415415414 68.50502078711098 130.6304736032093 0.0 0.0 199.13549439032087
1.5615615615615615 75.97686736380436 145.88571442106428 0.0 0.0 221.8625817848693
1.5815815815815815 83.59852790587058 161.61309598587846 0.0 0.0 245.2116238917498
1.6016016016016015 91.20224848327676 177.46759911130522 0.0 0.0 268.66984759458086
1.6216216216216217 98.60128415931915 193.05806280521887 0.0 0.0 291.65934696453974
1.6416416416416417 105.5964703634989 207.96265670333722 0.0 0.0 313.5591270668367
1.6616616616616617 111.98466778492262 221.7489590000303 0.0 0.0 333.73362678495283
1.6816816816816818 117.56881126881991 233.99763447549256 0.0 0.0 351.56644574431203
1.7017017017017018 122.16902610842168 244.32809182102042 0.0 0.0 366.4971179294425
1.7217217217217218 125.63401723768506 252.4239849354042 0.0 0.0 378.0580021730891
1.7417417417417418 127.85173893956387 258.05611502145905 0.0 0.0 385.90785396102217
1.7617617617617618 128.75826321386361 261.10027594607664 0.0 0.0 389.8585391599393
1.7817817817817818 128.3438192499351 261.5479115911237 0.0 0.0 389.891730841058
1.8018018018018018 126.6551876292659 259.50811340849526 0.0 0.0 386.1633010377635
1.8218218218218218 123.79398642029781 255.20041195638572 0.0 0.0 378.99439837668115
1.8418418418418419 119.9108400391443 248.93888760398121 0.0 0.0 368.8497276431242
1.8618618618618619 115.19591152603576 241.1091874976141 0.0 0.0 356.30509902365037
1.8818818818818819 109.86672931927687 232.1409239544775 0.0 0.0 342.0076532737542
1.901901901901902 104.15457747256166 222.4784996088862 0.0 0.0 326.6330770814496
1.921921921921922 98.29088613249328 212.55355945544466 0.0 0.0 310.84444558793905
1.941941941941942 92.49502628273648 202.7619769204075 0.0 0.0 295.2570032031445
1.961961961961962 86.96468134794812 193.44757926961316 0.0 0.0 280.4122606175603
1.981981981981982 81.86957303078788 184.89381138299393 0.0 0.0 266.76338441378283
2.002002002002002 77.34882122600972 177.3233784254612 0.0 0.0 254.67219965147092
2.022022022022022 73.51169553590252 170.90477218200766 0.0 0.0 244.41646771790997
2.042042042042042 70.44104915044609 165.76364235910285 0.0 0.0 236.20469150954943
2.062062062062062 68.19838461537738 161.9963608926447 0.0 0.0 230.19474550802218
2.0820820820820822 66.82933392836753 159.68293021443208 0.0 0.0 226.51226414279816
2.1021021021021022 66.3683628390835 158.89662795015593 0.0 0.0 225.26499078923862
2.1221221221221223 66.84172117982085 159.70841781127302 0.0 0.0 226.5501389910954
2.1421421421421423 68.26801991462202 162.18508916015176 0.0 0.0 230.45310907477523
2.1621621621621623 70.65626299809107 166.3811737757499 0.0 0.0 237.03743677384003
2.1821821821821823 74.00162853720562 172.32576512593207 0.0 0.0 246.32739366313595
2.2022022022022023 78.27970915245061 180.0062736032957 0.0 0.0 258.2859827557465
2.2222222222222223 83.44022558963852 189.3517575481672 0.0 0.0 272.79198313780535
2.2422422422422423 89.40137827662262 200.21868651646957 0.0 0.0 289.62006479309315
2.2622622622622623 96.04597957266594 212.38178974339363 0.0 0.0 308.42776931606085
2.2822822822822824 103.22032064757967 225.53205005827948 0.0 0.0 328.75237070585865
2.3023023023023024 110.73639982094723 239.28300861132612 0.0 0.0 350.01940843227277
2.3223223223223224 118.37772020919626 253.1854780216669 0.0 0.0 371.56319823086176
2.3423423423423424 125.90841086943328 266.74967275848525 0.0 0.0 392.65808362791597
2.3623623623623624 133.0849972765266 279.4728071082322 0.0 0.0 412.5578043847582
2.3823823823823824 139.66979891884543 290.86951172824837 0.0 0.0 430.53931064708956
2.4024024024024024 145.44470745572806 300.502067696016 0.0 0.0 445.94677515174163
2.4224224224224224 150.22402526675208 308.0074885701603 0.0 0.0 458.23151383691373
2.4424424424424425 153.86512927818737 313.1188781831434 0.0 0.0 466.9840074613272
2.4624624624624625 156.27595699648333 315.6791874589444 0.0 0.0 471.955144455424
2.4824824824824825 157.41866094881536 315.6463834088419 0.0 0.0 473.0650443576579
2.5025025025025025 157.30919984088197 313.0900034387106 0.0 0.0 470.39920327959226
2.5225225225225225 156.01307587970402 308.1799724175542 0.0 0.0 464.1930482972568
2.5425425425425425 153.63783124944612 301.16929855171537 0.0 0.0 454.80712980116164
2.5625625625625625 150.32323071216115 292.3727565188356 0.0 0.0 442.6959872309966
2.5825825825825826 146.23024191234236 282.14387039719645 0.0 0.0 428.3741123095405
2.6026026026026026 141.52995882485075 270.85242364925534 0.0 0.0 412.38238247410817
2.6226226226226226 136.3934978786296 258.86438578177166 0.0 0.0 395.2578836604024
2.6426426426426426 130.98365437140248 246.52562225881616 0.0 0.0 377.50927663021906
2.6626626626626626 125.44878186641343 234.15013110667513 0.0 0.0 359.59891297308974
2.6826826826826826 119.91900439241655 222.01291694654626 0.0 0.0 341.93192133896264
2.7027027027027026 114.50454791331276 210.34705392694283 0.0 0.0 324.85160184025904
2.7227227227227226 109.29573328598514 199.34406822076312 0.0 0.0 308.6398015067474
2.7427427427427427 104.36404075211762 189.1565285324063 0.0 0.0 293.5205692845246
2.7627627627627627 99.76364687166635 179.90168194526447 0.0 0.0 279.66532881693024
2.7827827827827827 95.5329367451207 171.66509862067178 0.0 0.0 267.1980353657903
2.8028028028028027 91.69567615204997 164.50355670229052 0.0 0.0 256.19923285433873
2.8228228228228227 88.26174654652816 158.4467573615579 0.0 0.0 246.70850390808644
2.8428428428428427 85.22755436089288 153.49785036935157 0.0 0.0 238.72540473024455
2.8628628628628627 82.57638427554488 149.6331132495147 0.0 0.0 232.20949752506075
2.8828828828828827 80.27904622734083 146.8014079698813 0.0 0.0 227.0804541972217
2.9029029029029028 78.29515664315595 144.92419544047695 0.0 0.0 223.2193520836321
2.9229229229229228 76.57530119860073 143.8968928262085 0.0 0.0 220.47219402480997
2.942942942942943 75.06416900397878 143.5922044473243 0.0 0.0 218.65637345130273
2.962962962962963 73.70455581780001 143.86575863138734 0.0 0.0 217.5703144491858
2.982982982982983 72.44194025884286 144.56397803852886 0.0 0.0 217.00591829737186
3.003003003003003 71.22917476133806 145.53365839427818 0.0 0.0 216.76283315561602
3.023023023023023 70.03072984435389 146.632304262776 0.0 0.0 216.6630341071294
3.043043043043043 68.82590560140673 147.73795033387108 0.0 0.0 216.5638559352763
3.063063063063063 67.61048737519167 148.75705552666727 0.0 0.0 216.36754290185894
3.083083083083083 66.39647121156739 149.62914644245166 0.0 0.0 216.02561765401913
3.103103103103103 65.20970508429943 150.3272230313785 0.0 0.0 215.536928115679
3.123123123123123 64.08555928033294 150.85349585973856 0.0 0.0 214.93905514007162
3.143143143143143 63.06301990913002 151.23072901162425 0.0 0.0 214.29374892075458
3.163163163163163 62.177853750932265 151.49020582126798 0.0 0.0 213.6680595722002
3.183183183183183 61.45568032218748 151.65798584563166 0.0 0.0 213.11366616781837
3.203203203203203 60.905873144188746 151.74155286952498 0.0 0.0 212.64742601371398
3.2232232232232234 60.51717347943865 151.71906585352409 0.0 0.0 212.23623933296216
3.2432432432432434 60.25573018092505 151.5331693676464 0.0 0.0 211.78889954857164
3.2632632632632634 60.06599319772824 151.0907144066824 0.0 0.0 211.15670760441168
3.2832832832832834 59.874520511521354 150.26886883453977 0.0 0.0 210.14338934606144
3.3033033033033035 59.59636006370176 148.92709808680834 0.0 0.0 208.52345815050975
3.3233233233233235 59.14329958131604 146.92354044757948 0.0 0.0 206.06684002889503
3.3433433433433435 58.43299685524008 144.13355476873733 0.0 0.0 202.56655162397738
3.3633633633633635 57.397857798900574 140.4678150707061 0.0 0.0 197.86567286960693
3.3833833833833835 55.99254545919352 135.8873384914532 0.0 0.0 191.87988395064698
3.4034034034034035 54.19917973812048 130.4132581432753 0.0 0.0 184.61243788139532
3.4234234234234235 52.02959786188088 124.12991451444903 0.0 0.0 176.15951237633007
3.4434434434434436 49.52444050483433 117.1808043268574 0.0 0.0 166.7052448316924
3.4634634634634636 46.74924571328814 109.75792978359864 0.0 0.0 156.50717549688704
3.4834834834834836 43.78810833998623 102.0859707865271 0.0 0.0 145.87407912651267
3.5035035035035036 40.73574209615563 94.40332611628895 0.0 0.0 135.13906821244478
3.5235235235235236 37.688928682298986 86.94235796274825 0.0 0.0 124.63128664504683
3.5435435435435436 34.73834162034865 79.91111162897761 0.0 0.0 114.64945324932609
3.5635635635635636 31.96160327039775 73.47841240396924 0.0 0.0 105.44001567436678
3.5835835835835836 29.418203850921962 67.76365363165897 0.0 0.0 97.18185748258077
3.6036036036036037 27.14662531944876 62.831897330620514 0.0 0.0 89.97852265006942
3.6236236236236237 25.163718463925317 58.69422613555408 0.0 0.0 83.85794459947944
3.6436436436436437 23.466121262094056 55.312708996657314 0.0 0.0 78.77883025875143
3.6636636636636637 22.033311729145588 52.60893693160954 0.0 0.0 74.64224866075493
3.6836836836836837 20.83177527627995 50.474875377284135 0.0 0.0 71.30665065356419
3.7037037037037037 19.819735855936045 48.7847570259547 0.0 0.0 68.60449288189061
3.7237237237237237 18.95193980095713 47.40686687459048 0.0 0.0 66.35880667554751
3.7437437437437437 18.18407070128039 46.21429733923391 0.0 0.0 64.39836804051414
3.7637637637637638 17.47648897934258 45.09402005095437 0.0 0.0 62.57050903029694
3.7837837837837838 16.79710858712925 43.953883798184776 0.0 0.0 60.750992385314
3.803803803803804 16.12332818465803 42.72737070432294 0.0 0.0 58.8506988889808
3.823823823823824 15.443015216590858 41.37610822826772 0.0 0.0 56.81912344485843
3.843843843843844 14.754595948720388 39.89024274618227 0.0 0.0 54.644838694902624
3.863863863863864 14.066336552699651 38.2868440153415 0.0 0.0 52.35318056804112
3.883883883883884 13.394917608509731 36.60654862636881 0.0 0.0 50.00146623487856
3.903903903903904 12.763416159461928 34.908685381294106 0.0 0.0 47.67210154075601
3.923923923923924 12.198823660715142 33.265172333428396 0.0 0.0 45.463995994143595
3.943943943943944 11.729249435528214 31.75354103304004 0.0 0.0 43.48279046856809
3.963963963963964 11.380987733423648 30.449524648790415 0.0 0.0 41.83051238221399
3.983983983983984 11.17565772240332 29.41972928435786 0.0 0.0 40.59538700676123
4.004004004004004 11.127651633334413 28.714970987052723 0.0 0.0 39.84262262038714
4.024024024024024 11.242136808424748 28.364881070097614 0.0 0.0 39.6070178785224
4.044044044044044 11.51384299746593 28.374338772024455 0.0 0.0 39.888181769490394
4.064064064064064 11.926820140047607 28.722170567025646 0.0 0.0 40.64899070707318
4.084084084084084 12.455272248522423 29.362359733141826 0.0 0.0 41.817631981664206
4.104104104104104 13.065464322256213 30.227752856361068 0.0 0.0 43.29321717861727
4.124124124124124 13.718572455868227 31.235960702100545 0.0 0.0 44.95453315796876
4.1441441441441444 14.37421890824045 32.2968689221917 0.0 0.0 46.6710878304321
4.1641641641641645 14.99432352499055 33.32094367510421 0.0 0.0 48.31526720009508
4.1841841841841845 15.546830171822055 34.22737969117955 0.0 0.0 49.77420986300162
4.2042042042042045 16.00884768667281 34.95112380866192 0.0 0.0 50.95997149533463
4.2242242242242245 16.368788213525725 35.4479278560286 0.0 0.0 51.81671606955447
4.2442442442442445 16.627191159154872 35.69683138922515 0.0 0.0 52.324022548379936
4.2642642642642645 16.79607772109061 35.699815652954456 0.0 0.0 52.495893374044925
4.2842842842842845 16.896869092350233 35.478755876549386 0.0 0.0 52.37562496889954
4.3043043043043046 16.95709478844103 35.07017044644433 0.0 0.0 52.027265234885114
4.324324324324325 17.00628751480066 34.51856387800475 0.0 0.0 51.524851392805154
4.344344344344345 17.071581450952735 33.86933817936482 0.0 0.0 50.94091963031758
4.364364364364365 17.17358242897181 33.16227637148632 0.0 0.0 50.33585880045807
4.384384384384385 17.323052003897324 32.42647980017632 0.0 0.0 49.74953180407381
4.404404404404405 17.518845380366788 31.67738999863698 0.0 0.0 49.19623537900365
4.424424424424425 17.7473795434441 30.916189714273386 0.0 0.0 48.66356925771743
4.444444444444445 17.98370598874956 30.131512474762445 0.0 0.0 48.11521846351201
4.464464464464465 18.194051054878706 29.30305430616053 0.0 0.0 47.497105361039274
4.484484484484485 18.339496114172864 28.406425649788716 0.0 0.0 46.74592176396178
4.504504504504505 18.380326468797918 27.418440806060463 0.0 0.0 45.798767274858
4.524524524524525 18.2805010476258 26.32203018799178 0.0 0.0 44.602531235617356
4.544544544544545 18.011694071248375 25.110069616898638 0.0 0.0 43.121763688146906
4.564564564564565 17.556432587841176 23.787624807622475 0.0 0.0 41.344057395463544
4.584584584584585 16.909987299473507 22.37236969403914 0.0 0.0 39.282356993512664
4.604604604604605 16.080847059555573 20.893211059109486 0.0 0.0 36.97405811866539
4.624624624624625 15.089793588779525 19.387398250151545 0.0 0.0 34.477191838931184
4.644644644644645 13.967765433919613 17.896583259496673 0.0 0.0 31.864348693416257
4.664664664664665 12.752835644062175 16.462403121920264 0.0 0.0 29.215238765982445
4.684684684684685 11.486709747460383 15.122177050389107 0.0 0.0 26.60888679784953
4.704704704704705 10.21117221984246 13.905251311433608 0.0 0.0 24.11642353127607
4.724724724724725 8.964873215259646 12.830401856089594 0.0 0.0 21.795275071349234
4.744744744744745 7.78076381202352 11.904540874872803 0.0 0.0 19.68530468689632
4.764764764764765 6.6843742769443715 11.12279394819325 0.0 0.0 17.807168225137637
4.784784784784785 5.693005384848332 10.46984352783568 0.0 0.0 16.16284891268398
4.804804804804805 4.815786405453399 9.922292538846373 0.0 0.0 14.738078944299758
4.824824824824825 4.05446010978457 9.45170369064289 0.0 0.0 13.506163800427437
